#a[micron]           a^4 n(a)/nh [grains/H cm^3]
0.025209719618439957, 1.5138201388763371e-33
0.028522753596477685, 1.8848264536324696e-33
0.030345117319540493, 2.6638163249523623e-33
0.032011931540302165, 3.633516651650415e-33
0.033770472278204296, 4.963688434773305e-33
0.03542325616740745, 6.623547935526803e-33
0.03752439006014701, 9.003198614687006e-33
0.03964583096746267, 1.252146747051551e-32
0.04182394319493282, 1.7131171714806618e-32
0.04412082678410222, 2.3297052961656793e-32
0.04654432117171973, 3.1777802800302347e-32
0.048822278777191745, 4.240431342527073e-32
0.05145232378616845, 5.668187176648315e-32
0.054558799115779, 7.854214212222521e-32
0.057726451086320796, 1.0876030591326927e-31
0.06190138769967359, 1.4555584937196813e-31
0.06628129968774796, 1.9835719303473353e-31
0.07122283912109595, 2.675615567420713e-31
0.07621113913056207, 3.565305669209449e-31
0.08193466132057572, 4.6860200347300695e-31
0.08766728840697931, 6.120087009292564e-31
0.09486598737250727, 7.920191676794817e-31
0.10271838995742537, 1.0291748457203542e-30
0.11005481255211334, 1.3166635895736916e-30
0.12123410681339088, 1.8045471805881583e-30
0.14183755292659722, 2.1188863590393336e-30
0.16190315802475283, 2.3615162421483515e-30
0.18552748249849896, 2.5801748029300993e-30
0.21616781686486114, 2.895791546495443e-30
0.24963783617870158, 2.7040011524244106e-30
0.2855547721284809, 1.9923267073848176e-30
0.3090864520426102, 1.613272138689703e-30
0.34477889308434734, 1.2873245703740798e-30
0.3834134051852145, 9.655113673209699e-31
0.4254203220750951, 7.386523768688252e-31
0.47351923331494616, 5.442753348661516e-31
0.4969463838789363, 4.206322574064202e-31
0.5232047360753448, 3.1781127157623085e-31
0.5508589211006446, 2.4121230408049123e-31
0.5799747785778202, 1.8307524258422319e-31
0.6106357417385649, 1.3936982009134355e-31
0.6428916187310101, 1.048267256901755e-31
0.6768410934215289, 7.848955409779894e-32
0.71256173268699, 5.824046356767499e-32
0.7501599599847475, 4.3085270547561026e-32
0.789742052863671, 3.1873725318128275e-32
0.8314379170054369, 2.379379452693598e-32
0.8753325339685263, 1.7746058143750008e-32
0.9095935578577369, 1.3452669640767958e-32
0.9504621980962253, 1.0013944872596033e-32
0.9894385335299897, 7.418354434499763e-33
1.0186998968106111, 5.425238475965012e-33
1.0555759843862733, 3.987371996055345e-33
1.096708312314321, 2.8756585387217368e-33
1.139448553887923, 2.076680271783912e-33
1.1859434111734017, 1.5065374866077922e-33
