# log(Mhalo/Msun)=9.143
#  yd=0.1, e_star=0.1, spin=0.027
#  t[Myr]        SFR[Msun/yr]        log(Mstar/Msun)        log(Md/Msun)        tau_v(MW dust)        tau_v,16th perc.(MW dust)        tau_v,84th perc.(MW dust)        L_1500[erg/s]
0.000000000000000000e+00 2.137520249266418315e-01 5.141302541887647237e+00 -2.567008976239954876e+01 9.562195463118717818e-32 4.448171361550532095e-32 3.944293770595575406e-31 3.012808313027927627e+26
1.007874015748031482e+00 2.129350498978589690e-01 5.443002258930238924e+00 -2.519352216162500113e+01 2.865003901668732957e-31 1.332751286593855242e-31 1.181780594808962607e-30 6.409857529228140456e+26
2.015748031496062964e+00 2.121228759855725010e-01 5.619764228761234826e+00 -2.489304489668234766e+01 5.722719806595267492e-31 2.662112320549938751e-31 2.360554976216280257e-30 1.047489440240050209e+27
3.023622047244094446e+00 2.113154732753810550e-01 5.745374669468050755e+00 -2.467174795623595784e+01 9.525755345585665792e-31 4.431220036109921017e-31 3.929262648387317349e-30 1.604633608386706667e+27
4.031496062992125928e+00 2.105127977631491010e-01 5.842957382715370684e+00 1.199510237600450280e+00 7.082027632851295798e-05 3.294439296881326000e-05 2.921253553452308463e-04 1.975716004082057659e+27
5.039370078740157410e+00 2.097148053500794973e-01 5.922812327665586629e+00 1.669698790570209423e+00 2.090962142890264157e-04 9.726801714067125179e-05 8.624974240030182891e-04 2.266917698628415975e+27
6.047244094488188892e+00 2.089214612815221417e-01 5.990433821656782065e+00 1.943199463541447569e+00 3.925064907353379849e-04 1.825873710745284234e-04 1.619043359129148860e-03 2.494600987241284053e+27
7.055118110236220375e+00 2.081327336109699278e-01 6.049101477376344072e+00 2.160017612621033756e+00 6.466436124817006876e-04 3.008076554453266438e-04 2.667329257537606226e-03 2.671710044720562218e+27
8.062992125984251857e+00 2.073485705686345104e-01 6.100930719348764519e+00 2.350697854777383800e+00 1.003102318347870708e-03 4.666262075890118856e-04 4.137679720927876434e-03 2.811054526676903726e+27
9.070866141732283339e+00 2.065689427649900212e-01 6.147365943400880717e+00 2.507076827786256512e+00 1.437885178698148367e-03 6.688798297161167123e-04 5.931108159256417989e-03 2.930929059403786088e+27
1.007874015748031482e+01 2.057938075844330528e-01 6.189437379161615738e+00 2.644480603521047080e+00 1.973004077965026352e-03 9.178080776194526324e-04 8.138411020871330614e-03 3.034313006880434034e+27
1.108661417322834630e+01 2.050231372285479248e-01 6.227905711604752703e+00 2.787352089883888162e+00 2.741570821466929667e-03 1.275332308437706914e-03 1.130865893137866611e-02 3.122714500456463664e+27
1.209448818897637778e+01 2.042568866997898080e-01 6.263348613998843462e+00 2.924413448835144091e+00 3.758900485556601785e-03 1.748576836277925982e-03 1.550502478918581832e-02 3.197935760982630670e+27
1.310236220472440927e+01 2.034950217015284446e-01 6.296215120728233750e+00 3.053968402924675640e+00 5.065423750017484204e-03 2.356349328546029128e-03 2.089428041884484888e-02 3.262916494175249410e+27
1.411023622047244075e+01 2.027375118884909566e-01 6.326861199568782901e+00 3.155950522591254526e+00 6.406161778543926870e-03 2.980037949515498396e-03 2.642466794785343701e-02 3.318059826677911964e+27
1.511811023622047223e+01 2.019843135956545799e-01 6.355573813575697173e+00 3.240549460545277149e+00 7.783892687574128430e-03 3.620935031896655928e-03 3.210764678153694290e-02 3.366648322329204472e+27
1.612598425196850371e+01 2.012353951346042835e-01 6.382587681998429296e+00 3.313437843493847179e+00 9.206302119553408381e-03 4.282615806372897307e-03 3.797491929592081844e-02 3.410975125078925014e+27
1.713385826771653342e+01 2.004907206876515857e-01 6.408097237952231850e+00 3.377865411576292498e+00 1.067856242829756316e-02 4.967486364328149370e-03 4.404782084543664572e-02 3.451614120237916021e+27
1.814173228346456668e+01 1.997502635782969771e-01 6.432265352293950578e+00 3.435694143733268646e+00 1.219948572291780498e-02 5.674994119041869289e-03 5.032145151912688352e-02 3.488857640677634263e+27
1.914960629921259994e+01 1.990139851363826873e-01 6.455229815943338778e+00 3.488640559656873030e+00 1.378122867184461420e-02 6.410794146753912015e-03 5.684595615218809156e-02 3.523981328600929167e+27
2.015748031496062964e+01 1.982818444381363732e-01 6.477108237555768255e+00 3.537704619193022371e+00 1.542950517924185881e-02 7.177544458897150426e-03 6.364490393088741149e-02 3.553999373258616189e+27
2.116535433070865935e+01 1.975538201400776628e-01 6.498001804155235206e+00 3.583388007978399958e+00 1.714096970509400644e-02 7.973688766924322269e-03 7.070449489401990639e-02 3.581271595288809227e+27
2.217322834645669261e+01 1.968298688836778998e-01 6.517998201610843978e+00 3.626481287052428115e+00 1.892904337602447501e-02 8.805470351608777821e-03 7.808008961891245436e-02 3.605580498974206248e+27
2.318110236220472586e+01 1.961099675825193622e-01 6.537173914512186990e+00 3.667394565645744731e+00 2.079897557989077508e-02 9.675331139265832062e-03 8.579334121640737332e-02 3.626481982725061717e+27
2.418897637795275557e+01 1.953940801778275838e-01 6.555596057798900311e+00 3.706342924504522074e+00 2.275046637148685560e-02 1.058313160046620363e-02 9.384301244761705796e-02 3.645086214494081956e+27
2.519685039370078528e+01 1.946821708563833131e-01 6.573323847035774214e+00 3.743708073444501405e+00 2.479450559357191525e-02 1.153398402391157644e-02 1.022744351283385450e-01 3.661999739919071825e+27
2.620472440944881853e+01 1.939742108903435014e-01 6.590409789828125753e+00 3.779593357794601705e+00 2.693027183166090896e-02 1.252750630149692193e-02 1.110842210199095570e-01 3.677419721822440782e+27
2.721259842519685179e+01 1.932701733892606133e-01 6.606900664571705661e+00 3.814282793500162860e+00 2.916957979289628439e-02 1.356919443486316774e-02 1.203211044072159397e-01 3.690769974377099386e+27
2.822047244094488150e+01 1.925700225576444102e-01 6.622838323512986847e+00 3.847808173840032264e+00 3.151051877104174559e-02 1.465815959583341085e-02 1.299772038505461191e-01 3.702334237590510515e+27
2.922834645669291120e+01 1.918737330246070572e-01 6.638260361497959394e+00 3.880300243430216511e+00 3.395843152450600533e-02 1.579688714512183026e-02 1.400745576033436690e-01 3.712869806240809074e+27
3.023622047244094446e+01 1.911812672182100492e-01 6.653200674530304504e+00 3.911857819590805807e+00 3.651784987962318485e-02 1.698748521157736335e-02 1.506318589191067148e-01 3.722565310033354064e+27
3.124409448818897772e+01 1.904926010350986854e-01 6.667689929920024738e+00 3.942582140492028930e+00 3.919489630996712826e-02 1.823280186620191215e-02 1.616743622851244122e-01 3.731369287086757102e+27
3.225196850393700743e+01 1.898077058076010903e-01 6.681755963396872389e+00 3.972548721956053797e+00 4.199485647541684186e-02 1.953529590844078206e-02 1.732238704300845256e-01 3.739140170073393289e+27
3.325984251968503713e+01 1.891265447786183440e-01 6.695424117083493165e+00 4.001817348674259200e+00 4.492258385547961974e-02 2.089722509475079593e-02 1.853004033891978430e-01 3.745755373245665452e+27
3.426771653543306684e+01 1.884491022401655891e-01 6.708717530188830658e+00 4.030432204573298982e+00 4.798213672683018793e-02 2.232047726670049678e-02 1.979207010790130783e-01 3.751858217673103121e+27
3.527559055118110365e+01 1.877753339823093337e-01 6.721657385878620161e+00 4.058447926617209767e+00 5.117941365119730440e-02 2.380779633529415268e-02 2.111090943766513461e-01 3.757512146034018243e+27
3.628346456692913335e+01 1.871052180399826459e-01 6.734263125605449929e+00 4.085904238389820975e+00 5.451946905594566573e-02 2.536153353452811135e-02 2.248864322037284758e-01 3.762642398293551400e+27
3.729133858267716306e+01 1.864387301349777482e-01 6.746552636082020271e+00 4.112834629272682285e+00 5.800721415865089242e-02 2.698397347963058662e-02 2.392729727582327548e-01 3.767307193187223847e+27
3.829921259842519987e+01 1.857758359928330938e-01 6.758542410058833383e+00 4.139269733682791497e+00 6.164773333105465214e-02 2.867748133421490001e-02 2.542896884788321543e-01 3.771210691703417374e+27
3.930708661417322958e+01 1.851165191015996248e-01 6.770247687849280993e+00 4.165313733566152976e+00 6.545775600578161713e-02 3.044983934696892519e-02 2.700055863181052285e-01 3.774153761786867171e+27
4.031496062992125928e+01 1.844607398995788683e-01 6.781682580988527498e+00 4.189795329544086400e+00 6.925365656448159712e-02 3.221562799055265741e-02 2.856632320807630521e-01 3.776746458129881963e+27
4.132283464566928899e+01 1.838084739468062723e-01 6.792860180741160825e+00 4.212886717092178657e+00 7.303551508047084750e-02 3.397488451371650370e-02 3.012629560598680256e-01 3.778910620297812239e+27
4.233070866141731869e+01 1.831596986402289351e-01 6.803792654776376736e+00 4.234733128954135672e+00 7.680341098865785254e-02 3.572764586823440336e-02 3.168050859151255172e-01 3.780833502902007037e+27
4.333858267716535551e+01 1.825143908493536693e-01 6.814491331420679643e+00 4.255458185911595415e+00 8.055742307775005939e-02 3.747394870527850225e-02 3.322899466407371882e-01 3.782362943397120326e+27
4.434645669291338521e+01 1.818725167667492038e-01 6.824966775740541891e+00 4.275167982834304325e+00 8.429762950520994225e-02 3.921382938237649024e-02 3.477178606270927563e-01 3.783555047953940156e+27
4.535433070866141492e+01 1.812340483371490951e-01 6.835228856704346434e+00 4.293954252484310175e+00 8.802410780706403093e-02 4.094732396797456236e-02 3.630891477012316293e-01 3.784432469526561079e+27
4.636220472440945173e+01 1.805989713490221971e-01 6.845286806169647242e+00 4.311896846063230981e+00 9.173693489382389599e-02 4.267446823953999213e-02 3.784041251100172532e-01 3.784929419297768590e+27
4.737007874015748143e+01 1.799672497888585854e-01 6.855149273481329075e+00 4.329065700398594174e+00 9.543618706533490981e-02 4.439529769046841878e-02 3.936631075813859515e-01 3.784852987273352184e+27
4.837795275590551114e+01 1.793388663518456494e-01 6.864824372927603946e+00 4.345522414069650452e+00 9.912194000868290722e-02 4.610984752911016782e-02 4.088664073157132206e-01 3.784340126243419042e+27
4.938582677165354085e+01 1.787137870322004496e-01 6.874319727717541184e+00 4.361321522338573509e+00 1.027942688145030287e-01 4.781815268635680738e-02 4.240143340530849181e-01 3.783640406239535076e+27
5.039370078740157055e+01 1.780919995508653542e-01 6.883642508118583692e+00 4.376511537357298920e+00 1.064532479923628316e-01 4.952024782279708381e-02 4.391071951367510051e-01 3.782760658235284726e+27
5.140157480314960736e+01 1.774734662051979384e-01 6.892799466729896629e+00 4.391135803538855242e+00 1.100989514518670859e-01 5.121616731992725824e-02 4.541452954351855031e-01 3.781707486709563024e+27
5.240944881889763707e+01 1.768581711550726021e-01 6.901796971084046106e+00 4.405233206424788328e+00 1.137314525260814946e-01 5.290594529104730021e-02 4.691289374387057065e-01 3.780506872600734355e+27
5.341732283464566677e+01 1.762460891682413322e-01 6.910641031650355259e+00 4.418838763924713753e+00 1.173508239647221701e-01 5.458961557809291487e-02 4.840584212313805423e-01 3.779109266728986400e+27
5.442519685039370358e+01 1.756371943199148411e-01 6.919337328195431347e+00 4.431984122792447245e+00 1.209571379559125220e-01 5.626721176175635691e-02 4.989340445807743940e-01 3.777546310109738932e+27
5.543307086614173329e+01 1.750314702342129214e-01 6.927891233570660390e+00 4.444697977839313197e+00 1.245504661254783901e-01 5.793876716115860942e-02 5.137561029350404818e-01 3.775797596098593341e+27
5.644094488188976300e+01 1.744288845089095874e-01 6.936307835890197282e+00 4.457006427954470773e+00 1.281308795398040101e-01 5.960431483517784207e-02 5.285248894347001070e-01 3.773838818977486172e+27
5.744881889763779270e+01 1.738294157697458653e-01 6.944591958088897954e+00 4.468933280030035426e+00 1.316984487118413039e-01 6.126388758524491801e-02 5.432406949374314342e-01 3.771548765164215024e+27
5.845669291338582241e+01 1.732330483490210626e-01 6.952748175857761836e+00 4.480500309660889080e+00 1.352532436041403996e-01 6.291751795675309955e-02 5.579038080305694924e-01 3.768696372852238480e+27
5.946456692913385922e+01 1.726397506130063486e-01 6.960780834233623260e+00 4.491727485847962775e+00 1.387953336469793519e-01 6.456523824749171858e-02 5.725145151058896875e-01 3.765732212734708101e+27
6.047244094488188892e+01 1.720495056835967540e-01 6.968694063490747048e+00 4.502633165386519920e+00 1.423247877290813868e-01 6.620708050332795025e-02 5.870731003213165433e-01 3.762616844554589321e+27
6.148031496062991863e+01 1.714622907881552527e-01 6.976491792128273417e+00 4.513234261860820773e+00 1.458416742126529830e-01 6.784307652520232823e-02 6.015798456629547486e-01 3.759523161422554992e+27
6.248818897637795544e+01 1.708780798746733498e-01 6.984177761065841317e+00 4.523546393021904422e+00 1.493460609339657130e-01 6.947325786939931302e-02 6.160350309474894592e-01 3.756284079457164386e+27
6.349606299212598515e+01 1.702968556697145308e-01 6.991755534027584318e+00 4.533584009848910412e+00 1.528380152142944648e-01 7.109765585263569387e-02 6.304389338673038745e-01 3.752916449418425915e+27
6.450393700787401485e+01 1.697185976500015236e-01 6.999228509570966317e+00 4.543360509877215847e+00 1.563176038502028520e-01 7.271630154754143982e-02 6.447918299504092898e-01 3.749491416595421380e+27
6.551181102362204456e+01 1.691432838015498596e-01 7.006599930869975346e+00 4.552888337192459112e+00 1.597848931418933138e-01 7.432922579584770595e-02 6.590939926773852209e-01 3.745966171275384889e+27
6.651968503937007426e+01 1.685708853322586964e-01 7.013872894992713825e+00 4.562179070750867815e+00 1.632399488874615445e-01 7.593645920571409635e-02 6.733456934576792507e-01 3.742235908112838135e+27
6.752755905511810397e+01 1.680013970919230493e-01 7.021050361420575037e+00 4.571243502706924922e+00 1.666828363791810208e-01 7.753803215000029669e-02 6.875472016142814002e-01 3.738390400678043087e+27
6.853543307086613368e+01 1.674347820907897133e-01 7.028135160438456985e+00 4.580091708126177608e+00 1.701136204215827064e-01 7.913397477467641605e-02 7.016987844583013612e-01 3.734516997932801983e+27
6.954330708661417759e+01 1.668710316246666270e-01 7.035130000429684394e+00 4.588733107081188756e+00 1.735323653229162988e-01 8.072431699485094203e-02 7.158007072537464488e-01 3.730476889806899019e+27
7.055118110236220730e+01 1.663101159376749738e-01 7.042037474553858090e+00 4.597176520224470764e+00 1.769391349106438638e-01 8.230908850197808657e-02 7.298532332814310353e-01 3.726213618057343991e+27
7.155905511811023700e+01 1.657520190243942926e-01 7.048860067764685766e+00 4.605430218575515156e+00 1.803339925398406429e-01 8.388831876776574326e-02 7.438566238736291636e-01 3.721835435201388595e+27
7.256692913385826671e+01 1.651967242233871036e-01 7.055600162156378197e+00 4.613501968196502823e+00 1.837170010811084442e-01 8.546203703855291545e-02 7.578111383642188725e-01 3.717170045411079648e+27
7.357480314960629642e+01 1.646442109249229568e-01 7.062260042776502544e+00 4.621399070497491657e+00 1.870882229436322541e-01 8.703027234603540052e-02 7.717170341837880088e-01 3.712408267998355626e+27
7.458267716535432612e+01 1.640944536926825514e-01 7.068841903240778990e+00 4.629128398520574450e+00 1.904477200621570721e-01 8.859305350120744160e-02 7.855745668059137543e-01 3.707520040219670910e+27
7.559055118110235583e+01 1.635474360317738241e-01 7.075347849978869341e+00 4.636696429824977095e+00 1.937955539188019605e-01 9.015040910450944356e-02 7.993839898371456476e-01 3.702586770728392767e+27
7.659842519685039974e+01 1.630031405515737497e-01 7.081779907136509067e+00 4.644109276233831629e+00 1.971317855441782618e-01 9.170236754634808474e-02 8.131455550216163397e-01 3.697642793900481418e+27
7.760629921259842945e+01 1.624615527393237502e-01 7.088140020790342000e+00 4.651372710825756762e+00 2.004564755140611776e-01 9.324895700554786115e-02 8.268595122273119102e-01 3.692597486585631719e+27
7.861417322834645915e+01 1.619226436605198105e-01 7.094430062591013275e+00 4.658492192509763541e+00 2.037696839598285292e-01 9.479020545420727140e-02 8.405261094891323115e-01 3.687568588336860589e+27
7.962204724409448886e+01 1.613863986247046078e-01 7.100651834261229034e+00 4.665472888368514148e+00 2.070714705578914627e-01 9.632614065278194415e-02 8.541455929652921331e-01 3.682480341724724857e+27
8.062992125984251857e+01 1.608528044918390854e-01 7.106807070191578646e+00 4.672319694140611546e+00 2.103618945640970683e-01 9.785679016608819780e-02 8.677182070792290869e-01 3.677334016019024831e+27
8.163779527559054827e+01 1.603218349718766311e-01 7.112897441475721116e+00 4.679037252820598347e+00 2.136410147884152955e-01 9.938218135152797339e-02 8.812441944151896411e-01 3.672095930746450674e+27
8.264566929133857798e+01 1.597934764072282965e-01 7.118924558415561599e+00 4.685629971780857161e+00 2.169088896161533997e-01 1.009023413689572324e-01 8.947237958057364660e-01 3.666868600687810620e+27
8.365354330708660768e+01 1.592677053857280700e-01 7.124889974042372565e+00 4.692102038408709319e+00 2.201655769978078381e-01 1.024172971759653439e-01 9.081572502898883625e-01 3.661513282113695339e+27
8.466141732283463739e+01 1.587445137734221079e-01 7.130795186114283091e+00 4.698457434532657295e+00 2.234111344734155402e-01 1.039270755392028428e-01 9.215447952135664700e-01 3.656095862989908467e+27
8.566929133858268131e+01 1.582238791134323586e-01 7.136641640142738829e+00 4.704699949632555445e+00 2.266456191678349608e-01 1.054317030321862969e-01 9.348866662101298353e-01 3.650654009672042530e+27
8.667716535433071101e+01 1.577057799473905175e-01 7.142430731981184167e+00 4.710833192995839802e+00 2.298690877815153522e-01 1.069312060310042695e-01 9.481830971622985382e-01 3.645136737556080477e+27
8.768503937007874072e+01 1.571902043008985561e-01 7.148163809754812803e+00 4.716860604974522531e+00 2.330815966068915390e-01 1.084256107219439408e-01 9.614343202697812618e-01 3.639532261305980652e+27
8.869291338582677042e+01 1.566771300293918756e-01 7.153842175997939812e+00 4.722785467363153522e+00 2.362832015364481897e-01 1.099149431052424408e-01 9.746405660825391282e-01 3.633843005337192865e+27
8.970078740157480013e+01 1.561665441553526934e-01 7.159467089743445811e+00 4.728610912981866754e+00 2.394739580648387323e-01 1.113992289960726301e-01 9.878020635095258184e-01 3.627983782840890227e+27
9.070866141732282983e+01 1.556584292847103812e-01 7.165039768890159699e+00 4.734339934526689220e+00 2.426539212801152590e-01 1.128784940204631132e-01 1.000919039782511621e+00 3.621963045587766965e+27
9.171653543307085954e+01 1.551527671863577318e-01 7.170561391312075372e+00 4.739975392810671373e+00 2.458231458774798039e-01 1.143527636216955384e-01 1.013991720512807282e+00 3.615906976926803878e+27
9.272440944881890346e+01 1.546495440471941374e-01 7.176033097103980296e+00 4.745520024395835534e+00 2.489816861653197932e-01 1.158220630631117964e-01 1.027020329716157976e+00 3.609806848535334516e+27
9.373228346456693316e+01 1.541487358447219125e-01 7.181455989902247872e+00 4.750976448670375163e+00 2.521295960648645695e-01 1.172864174279544258e-01 1.040005089811326222e+00 3.603657027315326518e+27
9.474015748031496287e+01 1.536503329811116925e-01 7.186831138358942717e+00 4.756347174427012270e+00 2.552669291088234815e-01 1.187458516187331337e-01 1.052946221614477151e+00 3.597563395939023358e+27
9.574803149606299257e+01 1.531543244934963355e-01 7.192159578225330918e+00 4.761634606005874737e+00 2.583937384520278990e-01 1.202003903621750441e-01 1.065843944383071173e+00 3.591428766244581773e+27
9.675590551181102228e+01 1.526606825833719816e-01 7.197442312915756091e+00 4.766841049006766973e+00 2.615100768755397320e-01 1.216500582111361278e-01 1.078698475832814196e+00 3.585275286373240222e+27
9.776377952755905199e+01 1.521693966978254209e-01 7.202680315408631628e+00 4.771968715619464341e+00 2.646159967926081658e-01 1.230948795473721241e-01 1.091510032162228860e+00 3.579094273627018603e+27
