# log(Mhalo/Msun)=9.714
#  yd=0.1, e_star=0.1, spin=0.027
#  t[Myr]        SFR[Msun/yr]        log(Mstar/Msun)        log(Md/Msun)        tau_v(MW dust)        tau_v,16th perc.(MW dust)        tau_v,84th perc.(MW dust)        L_1500[erg/s]
0.000000000000000000e+00 7.704241436539094323e-01 5.706761809748748249e+00 -2.511327011569223444e+01 1.433589735305580484e-31 6.668816622076528210e-32 5.913389957740246203e-31 1.085903286930039311e+27
1.007692307692307665e+00 7.676601512070335698e-01 6.008412308329904583e+00 -2.463666853359118747e+01 4.295626024419974408e-31 1.998252465707712668e-31 1.771895485119260136e-30 2.310552697156431619e+27
2.015384615384615330e+00 7.649120310312720328e-01 6.185124980317075583e+00 -2.433615733833171646e+01 8.580995220648940895e-31 3.991733628674801145e-31 3.539560148593440177e-30 3.776250193311336942e+27
3.023076923076922995e+00 7.621796087417278542e-01 6.310686043522873767e+00 -2.411482652289822326e+01 1.428461288760886564e-30 6.644959957425261234e-31 5.892235715665726909e-30 5.785240737695894581e+27
4.030769230769230660e+00 7.594627854634672381e-01 6.408219299419079640e+00 1.756329884307763933e+00 1.061756388348788149e-04 4.939110874497886432e-05 4.379620898366679092e-04 7.124077828486388375e+27
5.038461538461538325e+00 7.567614005976371905e-01 6.488024706997235214e+00 2.226552921395677398e+00 3.135074891342017078e-04 1.458383736430693607e-04 1.293181718776311709e-03 8.175309542881532853e+27
6.046153846153845990e+00 7.540753609591251960e-01 6.555596583109369213e+00 2.500091640416353567e+00 5.885544379710516000e-04 2.737855553982202210e-04 2.427718207915047742e-03 8.997841469701118410e+27
7.053846153846153655e+00 7.514045264226886234e-01 6.614214540538558396e+00 2.716942892286171141e+00 9.697011054476822748e-04 4.510885291095537934e-04 3.999903624966767539e-03 9.638273464556618977e+27
8.061538461538461320e+00 7.487487564579915489e-01 6.665994003352338382e+00 2.907650931434794916e+00 1.504339745113618962e-03 6.997933683813410428e-04 6.205225471908253770e-03 1.014273172858744587e+28
9.069230769230768985e+00 7.461079415511950863e-01 6.712379367158893828e+00 3.064060174933237679e+00 2.156528357633209075e-03 1.003180463921096634e-03 8.895427205951650720e-03 1.057712289427508280e+28
1.007692307692307665e+01 7.434819814721687070e-01 6.754400861371612663e+00 3.201493224287758732e+00 2.959294743421090213e-03 1.376613789044994762e-03 1.220674464023671982e-02 1.095216858470839803e+28
1.108461538461538431e+01 7.408707099131047746e-01 6.792819170697417697e+00 3.344383271950019054e+00 4.112238269015315063e-03 1.912943588180963418e-03 1.696250181272879187e-02 1.127329021207805328e+28
1.209230769230769198e+01 7.382740350033064614e-01 6.828211968153825140e+00 3.481460957965134106e+00 5.638400960526483013e-03 2.622888621581559530e-03 2.325774438569284952e-02 1.154697055768854050e+28
1.309999999999999964e+01 7.356918207542771926e-01 6.861028287947807058e+00 3.611031947246912122e+00 7.598483866025476652e-03 3.534685988633261711e-03 3.134285708165214512e-02 1.178379379779936840e+28
1.410769230769230731e+01 7.331239804646332292e-01 6.891624097511558134e+00 3.713042673249072223e+00 9.610316079200006620e-03 4.470556257067312411e-03 3.964142961817265776e-02 1.198520401845317115e+28
1.511538461538461497e+01 7.305703700597703243e-01 6.920286359708905266e+00 3.797676176424170880e+00 1.167807270762231085e-02 5.432441616206846492e-03 4.817068382558849921e-02 1.216302410279507633e+28
1.612307692307692264e+01 7.280308810428398614e-01 6.947249793485595681e+00 3.870602045338666031e+00 1.381328726937975510e-02 6.425707263307246786e-03 5.697819411682659985e-02 1.232551353398707767e+28
1.713076923076923208e+01 7.255054180246514051e-01 6.972708831736571966e+00 3.935068565241215399e+00 1.602372797717328129e-02 7.453966839336221423e-03 6.609600346055787001e-02 1.247473710585420050e+28
1.813846153846153797e+01 7.229938411392794473e-01 6.996826345061319508e+00 3.992937112888635287e+00 1.830762935154485807e-02 8.516399073154221414e-03 7.551682946054262546e-02 1.261174523681419885e+28
1.914615384615384386e+01 7.204960503772321889e-01 7.019740124089054234e+00 4.045923404037282012e+00 2.068323195571828907e-02 9.621489165807760313e-03 8.531591230630973521e-02 1.274113276848877507e+28
2.015384615384615330e+01 7.180119318920767935e-01 7.041567777261446004e+00 4.095027080850802470e+00 2.315912139787643445e-02 1.077323099679739805e-02 9.552866662727470259e-02 1.285213615992189387e+28
2.116153846153846274e+01 7.155414022679473796e-01 7.062410491298835247e+00 4.140749903452081604e+00 2.573030308148748641e-02 1.196930116441680646e-02 1.061344902970084159e-01 1.295325648959009634e+28
2.216923076923076863e+01 7.130843380121252295e-01 7.082355951810651362e+00 4.183881978146088088e+00 2.841691816246655691e-02 1.321906899323958481e-02 1.172164632275614904e-01 1.304370754849782474e+28
2.317692307692307452e+01 7.106406080293489191e-01 7.101480643170751783e+00 4.224833333810160241e+00 3.122686115373062010e-02 1.452620687695460773e-02 1.288071493612213403e-01 1.312188612417306396e+28
2.418461538461538396e+01 7.082101465124576167e-01 7.119851680030310881e+00 4.263819158740127513e+00 3.415970859047687963e-02 1.589051782690842698e-02 1.409048019552131270e-01 1.319179071668175717e+28
2.519230769230769340e+01 7.057928141018282586e-01 7.137528277641806973e+00 4.301220933246868938e+00 3.723196276917466879e-02 1.731967843189675949e-02 1.535774910520449343e-01 1.325560556193297068e+28
2.619999999999999929e+01 7.033885390552760963e-01 7.154562943406626019e+00 4.337142157983207902e+00 4.044242198524942294e-02 1.881312967930642843e-02 1.668202597609212967e-01 1.331403986571312924e+28
2.720769230769230518e+01 7.009972062536554693e-01 7.171002455423987065e+00 4.371866641730189684e+00 4.380882853638858737e-02 2.037912498549622822e-02 1.807062929843204213e-01 1.336501567031633754e+28
2.821538461538461462e+01 6.986187013243210231e-01 7.186888665675882137e+00 4.405426377104833868e+00 4.732835125546309973e-02 2.201634733947304551e-02 1.952239124890231270e-01 1.340955391974700809e+28
2.922307692307692406e+01 6.962529335003596609e-01 7.202259168737542794e+00 4.437952089935540911e+00 5.100903274710989060e-02 2.372853802468546588e-02 2.104062930783380525e-01 1.345038263891521172e+28
3.023076923076922995e+01 6.938998181011977184e-01 7.217147860340836552e+00 4.469542609317231019e+00 5.485770159128669499e-02 2.551887358086489532e-02 2.262816018457879386e-01 1.348818088531248970e+28
3.123846153846153584e+01 6.915592406233075362e-01 7.231585407504703689e+00 4.500299152981345863e+00 5.888357255056071021e-02 2.739164055947463858e-02 2.428878486090256528e-01 1.352276249366544799e+28
3.224615384615384528e+01 6.892311213482505972e-01 7.245599645683594048e+00 4.530297246959920976e+00 6.309460784054395088e-02 2.935054284835054636e-02 2.602578765760358293e-01 1.355361650948913563e+28
3.325384615384615472e+01 6.869153397029218455e-01 7.259215916758433806e+00 4.559596700551447057e+00 6.749812345176242623e-02 3.139898372236445828e-02 2.784218633519185415e-01 1.358030031098418726e+28
3.426153846153846416e+01 6.846118200906160522e-01 7.272457359614855399e+00 4.588241740364252585e+00 7.210024471846368521e-02 3.353981258325520326e-02 2.974050752239071893e-01 1.360513163397112698e+28
3.526923076923076650e+01 6.823204715986181945e-01 7.285345157131265736e+00 4.616287006815769978e+00 7.690985724209324637e-02 3.577716286230776810e-02 3.172441642585328014e-01 1.362833882278937224e+28
3.627692307692307594e+01 6.800411761864496585e-01 7.297898750512801236e+00 4.643772249126638663e+00 8.193458296199344904e-02 3.811458015660103976e-02 3.379705700639729082e-01 1.364965208214518280e+28
3.728461538461538538e+01 6.777738861909509138e-01 7.310136026174530954e+00 4.670730986144371322e+00 8.718183073767034330e-02 4.055551094208335178e-02 3.596148533190065555e-01 1.366928087753429892e+28
3.829230769230768772e+01 6.755184585067089964e-01 7.322073476585202023e+00 4.697193878538237222e+00 9.265927055178523053e-02 4.310352316477180507e-02 3.822086518048818382e-01 1.368615861331931558e+28
3.929999999999999716e+01 6.732748244171382623e-01 7.333726341766114487e+00 4.723264933858794201e+00 9.839203257242765122e-02 4.577030695319785070e-02 4.058556245252575301e-01 1.369956690889284894e+28
4.030769230769230660e+01 6.710429074189577792e-01 7.345108732956508568e+00 4.747776068715237052e+00 1.041048750233998232e-01 4.842782449521811083e-02 4.294204313509215609e-01 1.371170387645168136e+28
4.131538461538461604e+01 6.688225974781147887e-01 7.356233741145818961e+00 4.770899066401906197e+00 1.097979078274458342e-01 5.107612692503122470e-02 4.529035257003349857e-01 1.372228754164075165e+28
4.232307692307692548e+01 6.666138439999713672e-01 7.367113533699259698e+00 4.792778831218532432e+00 1.154712400205432921e-01 5.371526496432706133e-02 4.763053573341501923e-01 1.373199254576661596e+28
4.333076923076922782e+01 6.644165191232570544e-01 7.377759438666176450e+00 4.813538719135907584e+00 1.211249797774405640e-01 5.634528893416628631e-02 4.996263724605500833e-01 1.374027031275072715e+28
4.433846153846153726e+01 6.622305455840324928e-01 7.388182020813109929e+00 4.833284609059277592e+00 1.267592343994868032e-01 5.896624874931901544e-02 5.228670136850479544e-01 1.374732278768192408e+28
4.534615384615384670e+01 6.600558522293016317e-01 7.398391148784074112e+00 4.852108055923413765e+00 1.323741103459334101e-01 6.157819393282571580e-02 5.460277201396022129e-01 1.375323143870476828e+28
4.635384615384614904e+01 6.578923660951814245e-01 7.408396054159034350e+00 4.870088763175667523e+00 1.379697132226121725e-01 6.418117361073059912e-02 5.691089274359153460e-01 1.375775890222439422e+28
4.736153846153845848e+01 6.557399783675968985e-01 7.418205385976616384e+00 4.887296543867320153e+00 1.435461478021617665e-01 6.677523652149047750e-02 5.921110677488654606e-01 1.376020966018828668e+28
4.836923076923076792e+01 6.535985994551068989e-01 7.427827258238021813e+00 4.903792892161467520e+00 1.491035180371079738e-01 6.936043102205956268e-02 6.150345698704612341e-01 1.376107689331732685e+28
4.937692307692307736e+01 6.514681861536735230e-01 7.437269293826923366e+00 4.919632254553219397e+00 1.546419270536757984e-01 7.193680508501092141e-02 6.378798591843173327e-01 1.376125986194812768e+28
5.038461538461538680e+01 6.493486220804298714e-01 7.446538662708765521e+00 4.934863067244189772e+00 1.601614771719800379e-01 7.450440630792884433e-02 6.606473577489376803e-01 1.376078305106547532e+28
5.139230769230768914e+01 6.472398535646581852e-01 7.455642117195651508e+00 4.949528609346804053e+00 1.656622699024868084e-01 7.706328191176271825e-02 6.833374842831204665e-01 1.375967021560214494e+28
5.239999999999999858e+01 6.451417708436884002e-01 7.464586024487476656e+00 4.963667709927217508e+00 1.711444059682543650e-01 7.961347875117316675e-02 7.059506542576983179e-01 1.375801493426318683e+28
5.340769230769230802e+01 6.430543370289182326e-01 7.473376394739458917e+00 4.977315337885310775e+00 1.766079853258282206e-01 8.215504332425210832e-02 7.284872799817292410e-01 1.375563854634436681e+28
5.441538461538461036e+01 6.409774298394014247e-01 7.482018907409822006e+00 4.990503097113202280e+00 1.820531071384640376e-01 8.468802176006637317e-02 7.509477704920419772e-01 1.375265502631947339e+28
5.542307692307691980e+01 6.389110003425210182e-01 7.490518935050793026e+00 5.003259644846024479e+00 1.874798698082041915e-01 8.721245983357933662e-02 7.733325316855510501e-01 1.374899069978968997e+28
5.643076923076922924e+01 6.368549680272852509e-01 7.498881565451593900e+00 5.015611046867362255e+00 1.928883709659008072e-01 8.972840296100964563e-02 7.956419662781001323e-01 1.374455792167989670e+28
5.743846153846153868e+01 6.348092500049662412e-01 7.507111621217629427e+00 5.027581080837013161e+00 1.982787075010891964e-01 9.223589621372803304e-02 8.178764739276884743e-01 1.373891967314552724e+28
5.844615384615384812e+01 6.327737954250592933e-01 7.515213677721612306e+00 5.039191496436936646e+00 2.036509755604609950e-01 9.473498431754687199e-02 8.400364512281721652e-01 1.373124293873869045e+28
5.945384615384615046e+01 6.307484995389597282e-01 7.523192079695165901e+00 5.050462239574366130e+00 2.090052705513874287e-01 9.722571165435918428e-02 8.621222917237962857e-01 1.372315133066979004e+28
6.046153846153845990e+01 6.287332946042000215e-01 7.531050957070159591e+00 5.061411646441571932e+00 2.143416871498205756e-01 9.970812226581421411e-02 8.841343859417886142e-01 1.371450265303829366e+28
6.146923076923076934e+01 6.267281320259089350e-01 7.538794238044542517e+00 5.072056612152866073e+00 2.196603193040883861e-01 1.021822598550828493e-01 9.060731214080114393e-01 1.370592002494628431e+28
6.247692307692307168e+01 6.247329094845140984e-01 7.546425663176309584e+00 5.082412737901023547e+00 2.249612602596978150e-01 1.046481677983954334e-01 9.279388827492734970e-01 1.369680131724460206e+28
6.348461538461538112e+01 6.227475742289069194e-01 7.553948795882279299e+00 5.092494459728717615e+00 2.302446025458731726e-01 1.071058891387798723e-01 9.497320516378009447e-01 1.368720720838385737e+28
6.449230769230769056e+01 6.207720536453835702e-01 7.561367034383152053e+00 5.102315161728151693e+00 2.355104379961568406e-01 1.095554665956445517e-01 9.714530068762132764e-01 1.367739410196880947e+28
6.550000000000000000e+01 6.188062640390928903e-01 7.568683621512109383e+00 5.111887275785194973e+00 2.407588577487108916e-01 1.119969425649187389e-01 9.931021243987681046e-01 1.366720768997417748e+28
6.650769230769230944e+01 6.168501512083308658e-01 7.575901653998085905e+00 5.121222369799821372e+00 2.459899522611946054e-01 1.144303591259733383e-01 1.014679777332727850e+00 1.365627024428977855e+28
6.751538461538461888e+01 6.149036499793337773e-01 7.583024090995764688e+00 5.130331225872438949e+00 2.512038112967339143e-01 1.168557580350940844e-01 1.036186335940487258e+00 1.364490518963469967e+28
6.852307692307692832e+01 6.129666901189226857e-01 7.590053762447483976e+00 5.139223909928210432e+00 2.564005239630539612e-01 1.192731807436853558e-01 1.057622167780988054e+00 1.363342736781671146e+28
6.953076923076922355e+01 6.110391785229312145e-01 7.596993376390116737e+00 5.147909833723682382e+00 2.615801787040381576e-01 1.216826683943436349e-01 1.078987637674903244e+00 1.362133648961613949e+28
7.053846153846153300e+01 6.091211016608828466e-01 7.603845525651785842e+00 5.156397810287387529e+00 2.667428632941364341e-01 1.240842618182563251e-01 1.100283107681571559e+00 1.360842902864489909e+28
7.154615384615384244e+01 6.072123387328574040e-01 7.610612694824413715e+00 5.164696103656013726e+00 2.718886648631739233e-01 1.264780015467421581e-01 1.121508937201329159e+00 1.359509504608443358e+28
7.255384615384615188e+01 6.053128641693351630e-01 7.617297265660454286e+00 5.172812473495796759e+00 2.770176698840309260e-01 1.288639278055203896e-01 1.142665482924690945e+00 1.358071348572117415e+28
7.356153846153846132e+01 6.034225814396801946e-01 7.623901522867976510e+00 5.180754215329933743e+00 2.821299641938255776e-01 1.312420805245644306e-01 1.163753098919729112e+00 1.356597196781206006e+28
7.456923076923077076e+01 6.015414403010642674e-01 7.630427659693844511e+00 5.188528196821224014e+00 2.872256330053066242e-01 1.336124993434016361e-01 1.184772136679063781e+00 1.355076209539474088e+28
7.557692307692308020e+01 5.996693882695965927e-01 7.636877782217847965e+00 5.196140890535588142e+00 2.923047608895368299e-01 1.359752236030578321e-01 1.205722945048435024e+00 1.353537728104485426e+28
7.658461538461537543e+01 5.978063595157750987e-01 7.643253914227081225e+00 5.203598403697421659e+00 2.973674318076888756e-01 1.383302923608485113e-01 1.226605870357859285e+00 1.351994129857327404e+28
7.759230769230768487e+01 5.959522718893527360e-01 7.649558001433790722e+00 5.210906505126603250e+00 3.024137290925167365e-01 1.406777443817592843e-01 1.247421256345198515e+00 1.350412756365956494e+28
7.859999999999999432e+01 5.941070733504293377e-01 7.655791915145061743e+00 5.218070649803777883e+00 3.074437354783836618e-01 1.430176181524144274e-01 1.268169444280022207e+00 1.348836044684170549e+28
7.960769230769230376e+01 5.922707088058526415e-01 7.661957456700849711e+00 5.225096001209225349e+00 3.124575331024840863e-01 1.453499518816456781e-01 1.288850772968650249e+00 1.347236697333763700e+28
8.061538461538461320e+01 5.904431328413670688e-01 7.668056360140714567e+00 5.231987451700057967e+00 3.174552034998168182e-01 1.476747834981533003e-01 1.309465578733413738e+00 1.345615171365051237e+28
8.162307692307692264e+01 5.886242513369652762e-01 7.674090296180193782e+00 5.238749641162374182e+00 3.224368276173741332e-01 1.499921506571071095e-01 1.330014195471186822e+00 1.343959332254103899e+28
8.263076923076923208e+01 5.868140181985873616e-01 7.680060874761606371e+00 5.245386974048742879e+00 3.274024857990290860e-01 1.523020907331158191e-01 1.350496954591047238e+00 1.342306127280107474e+28
8.363846153846154152e+01 5.850123925407988423e-01 7.685969648526489451e+00 5.251903635082615374e+00 3.323522578332727684e-01 1.546046408424340546e-01 1.370914185211188130e+00 1.340605560793031719e+28
8.464615384615385096e+01 5.832192890430661913e-01 7.691818114870674350e+00 5.258303603571484963e+00 3.372862229174014015e-01 1.568998378263025129e-01 1.391266214011190216e+00 1.338881372174799928e+28
8.565384615384614619e+01 5.814346650006823047e-01 7.697607718934865062e+00 5.264590666652311235e+00 3.422044596868808464e-01 1.591877182646080913e-01 1.411553365353153344e+00 1.337147139388148252e+28
8.666153846153845564e+01 5.796584447274336638e-01 7.703339856180143386e+00 5.270768431433695334e+00 3.471070462007911361e-01 1.614683184691124984e-01 1.431775961221649629e+00 1.335384492084989748e+28
8.766923076923076508e+01 5.778906041169926677e-01 7.709015874345573671e+00 5.276840336251965802e+00 3.519940599755575494e-01 1.637416744991437856e-01 1.451934321362866820e+00 1.333589179759328433e+28
8.867692307692307452e+01 5.761310706423726780e-01 7.714637075586920467e+00 5.282809661014152169e+00 3.568655779779534298e-01 1.660078221583412839e-01 1.472028763255741168e+00 1.331762079195548917e+28
8.968461538461538396e+01 5.743797751049805056e-01 7.720204718561714863e+00 5.288679536752264099e+00 3.617216766118770410e-01 1.682667969885042192e-01 1.492059602057414391e+00 1.329872484586922078e+28
9.069230769230769340e+01 5.726366803286826457e-01 7.725720020761418283e+00 5.294452954509105247e+00 3.665624317409232336e-01 1.705186342800920352e-01 1.512027150696342304e+00 1.327923436327437028e+28
9.170000000000000284e+01 5.709017147230676104e-01 7.731184159676533163e+00 5.300132773558924981e+00 3.713879186994103465e-01 1.727633690773534569e-01 1.531931719917773771e+00 1.325960406416378186e+28
9.270769230769229807e+01 5.691748376583868341e-01 7.736598275000539537e+00 5.305721729024221567e+00 3.761982122949419360e-01 1.750010361795185654e-01 1.551773618294323809e+00 1.323980249852603461e+28
9.371538461538460751e+01 5.674559935399743349e-01 7.741963469974870726e+00 5.311222438932743373e+00 3.809933867958384957e-01 1.772316701349521406e-01 1.571553152174126389e+00 1.321980943019477800e+28
9.472307692307691696e+01 5.657451239062333270e-01 7.747280812868289956e+00 5.316637410814363918e+00 3.857735159500214617e-01 1.794553052499380241e-01 1.591270625758730572e+00 1.320000649940274719e+28
9.573076923076922640e+01 5.640421852109539502e-01 7.752551339010949505e+00 5.321969047829088417e+00 3.905386729931965561e-01 1.816719755924860458e-01 1.610926341136854845e+00 1.318004350986147658e+28
9.673846153846153584e+01 5.623470993232717596e-01 7.757776051423316055e+00 5.327219654466547105e+00 3.952889306480406040e-01 1.838817149919536043e-01 1.630520598281034017e+00 1.316000033648039487e+28
9.774615384615384528e+01 5.606598368975403979e-01 7.762955922670520259e+00 5.332391441859851255e+00 4.000243611219384543e-01 1.860845570379930924e-01 1.650053695038284252e+00 1.313984571251994376e+28
