# log(Mhalo/Msun)=10.286
#  yd=0.1, e_star=0.1, spin=0.027
#  t[Myr]        SFR[Msun/yr]        log(Mstar/Msun)        log(Md/Msun)        tau_v(MW dust)        tau_v,16th perc.(MW dust)        tau_v,84th perc.(MW dust)        L_1500[erg/s]
0.000000000000000000e+00 2.782050079526678044e+00 6.272221077609848372e+00 -2.455563505656311918e+01 2.153314976167204683e-31 1.001685653292518026e-31 8.882172383303659699e-31 3.921265124732525469e+27
1.007462686567164090e+00 2.772704678670765421e+00 6.573822363290949156e+00 -2.407900036509665043e+01 6.452711560644789968e-31 3.001692119671935447e-31 2.661668035365625345e-30 8.344447034155266901e+27
2.014925373134328179e+00 2.763411693306077499e+00 6.750485746717073354e+00 -2.377845611163331085e+01 1.289099695532090993e-30 5.996673431290812616e-31 5.317385446025525052e-30 1.363907531850118118e+28
3.022388059701492047e+00 2.754170740685422558e+00 6.875997445436462741e+00 -2.355709228579179637e+01 2.146101863558122807e-30 9.983302354850586129e-31 8.852419137576422326e-30 2.089677056285249094e+28
4.029850746268656358e+00 2.744981278769998756e+00 6.973481260738414456e+00 2.313964943436882304e+00 1.594804898338161522e-04 7.418762253302250021e-05 6.578383646404676677e-04 2.573614432737938878e+28
5.037313432835820670e+00 2.735842961748110813e+00 7.053237151454025522e+00 2.784221579741829711e+00 4.709385011051482714e-04 2.190726137890751542e-04 1.942566226979030794e-03 2.953804253170823569e+28
6.044776119402984094e+00 2.726755435137044881e+00 7.120759433960111906e+00 3.057797366329561672e+00 8.841785683111567104e-04 4.113048934450137502e-04 3.647133163649397738e-03 3.251493563038853164e+28
7.052238805970148405e+00 2.717718141762915263e+00 7.179327721145519092e+00 3.274680877123245182e+00 1.456879037982376909e-03 6.777154513303470769e-04 6.009455606914546749e-03 3.483490648859233443e+28
8.059701492537312717e+00 2.708730773917215728e+00 7.231057436631778579e+00 3.465416011496774917e+00 2.260261194958469028e-03 1.051435222780848109e-03 9.323313025318476222e-03 3.666436726665471712e+28
9.067164179104477029e+00 2.699792819485668627e+00 7.277392975819029886e+00 3.621854762796973937e+00 3.240390723826695740e-03 1.507374877825267681e-03 1.336623267698479854e-02 3.824119679272859353e+28
1.007462686567164134e+01 2.690903989149014297e+00 7.319364567915754627e+00 3.759316352713477194e+00 4.446916453125885314e-03 2.068630210530224018e-03 1.834301017174849377e-02 3.960405219966662535e+28
1.108208955223880565e+01 2.682063838055841032e+00 7.357732897372794234e+00 3.902224509301650546e+00 6.179696221320122966e-03 2.874690008249722577e-03 2.549052401609890744e-02 4.077246061470899968e+28
1.208955223880596819e+01 2.673271919746110115e+00 7.393075636967411768e+00 4.039318127743161568e+00 8.473459249782405722e-03 3.941709716510487932e-03 3.495202818559792202e-02 4.176978611343078163e+28
1.309701492537313250e+01 2.664527890199070992e+00 7.425841820739815802e+00 4.168904764293967169e+00 1.141950770181781975e-02 5.312161555173294629e-03 4.710413342341127074e-02 4.263420897884974481e+28
1.410447761194029681e+01 2.655831435947891173e+00 7.456387415789672346e+00 4.270943385304799556e+00 1.444395087763432686e-02 6.719081291461152100e-03 5.957960772625782442e-02 4.337091295146774987e+28
1.511194029850746112e+01 2.647182024461845362e+00 7.484999384800131494e+00 4.355610593497702077e+00 1.755307510070302709e-02 8.165393216572813459e-03 7.240438144308580792e-02 4.402256133665807827e+28
1.611940298507462543e+01 2.638579369504522987e+00 7.511912446424353185e+00 4.428573020135164739e+00 2.076422076267470801e-02 9.659163786986462233e-03 8.564998166098700128e-02 4.461895989928900306e+28
1.712686567164178797e+01 2.630023038485658660e+00 7.537321033347829768e+00 4.493077532893888559e+00 2.408907647413131153e-02 1.120583034635894669e-02 9.936462253128584832e-02 4.516755161553779291e+28
1.813432835820895406e+01 2.621512761914117196e+00 7.561388015923716566e+00 4.550984922204391658e+00 2.752501343773642792e-02 1.280417002269687229e-02 1.135374605724845942e-01 4.567211850111933519e+28
1.914179104477611659e+01 2.613048079958907088e+00 7.584251184501903609e+00 4.604010120612817225e+00 3.109945211714833582e-02 1.446693835123643961e-02 1.282816019895457182e-01 4.614924251698291016e+28
2.014925373134328268e+01 2.604628650470973916e+00 7.606028147321279853e+00 4.653152460529915047e+00 3.482531697441858254e-02 1.620014757280486065e-02 1.436503586765366103e-01 4.656004932968879289e+28
2.115671641791044522e+01 2.596254174573424667e+00 7.626820090809887986e+00 4.698913774072653204e+00 3.869513726003466492e-02 1.800032242127114560e-02 1.596129146656417030e-01 4.693522165955914220e+28
2.216417910447761130e+01 2.587924205697206048e+00 7.646714700328684167e+00 4.742083724467204497e+00 4.273919539707593529e-02 1.988154976691728845e-02 1.762941814096451176e-01 4.727191204850114274e+28
2.317164179104477384e+01 2.579638429223450213e+00 7.665788460046803365e+00 4.783072262011086373e+00 4.696938562150054092e-02 2.184936260684217438e-02 1.937432212404941456e-01 4.756432242271075319e+28
2.417910447761193637e+01 2.571396484441610841e+00 7.684108484338374012e+00 4.822094679739920231e+00 5.138511078614180216e-02 2.390348315829857184e-02 2.119575709959802268e-01 4.782688131189464610e+28
2.518656716417910246e+01 2.563198111420212033e+00 7.701733988155160304e+00 4.859532233977638782e+00 5.601119667542261288e-02 2.605545995569196957e-02 2.310396341327435599e-01 4.806746946699242344e+28
2.619402985074626500e+01 2.555042917057948948e+00 7.718717478705647395e+00 4.895488576357703181e+00 6.084588241444239404e-02 2.830447386984495661e-02 2.509821472478053761e-01 4.828864292133017311e+28
2.720149253731343109e+01 2.546930482774911741e+00 7.735105733804113370e+00 4.930247313590522040e+00 6.591586127334950196e-02 3.066294215789037644e-02 2.718952169579663125e-01 4.848289348567487098e+28
2.820895522388059362e+01 2.538860606530205732e+00 7.750940605179516218e+00 4.963840631963379657e+00 7.121693018565403155e-02 3.312890962449016596e-02 2.937615061056273458e-01 4.865390204511695910e+28
2.921641791044775971e+01 2.530832841900482855e+00 7.766259687147848645e+00 4.996399238834754009e+00 7.676121783388588360e-02 3.570801832731726466e-02 3.166310440874189336e-01 4.881151427373185573e+28
3.022388059701492224e+01 2.522846966797503310e+00 7.781096875180720573e+00 5.028021974538781080e+00 8.255903195561931085e-02 3.840506325129506432e-02 3.405463491150425015e-01 4.895817933348200202e+28
3.123134328358208833e+01 2.514902614901182609e+00 7.795482836017746386e+00 5.058810036838678137e+00 8.862426661009997764e-02 4.122650767744209105e-02 3.655647325575683282e-01 4.909322274389727736e+28
3.223880597014925087e+01 2.506999422151131363e+00 7.809445404849731709e+00 5.088838961375765635e+00 9.496893742057063714e-02 4.417794107016595473e-02 3.917357574552930433e-01 4.921479668709877829e+28
3.324626865671641696e+01 2.499137102724974469e+00 7.823009923327339799e+00 5.118168581090031921e+00 1.016040918806933313e-01 4.726450253639181281e-02 4.191049934272437771e-01 4.932129996023474856e+28
3.425373134328357594e+01 2.491315390870500135e+00 7.836199530024973825e+00 5.146843163927135478e+00 1.085389913536397161e-01 5.049050030539485590e-02 4.477106425131155976e-01 4.942109878163020677e+28
3.526119402985074203e+01 2.483533921528849220e+00 7.849035407545582821e+00 5.174917353445916746e+00 1.157870451229711523e-01 5.386217214875656939e-02 4.776080164389898131e-01 4.951501621418250546e+28
3.626865671641790811e+01 2.475792445097447558e+00 7.861536996858435877e+00 5.202430923786679706e+00 1.233597672357759356e-01 5.738487420615336759e-02 5.088446093021997685e-01 4.960207705243151492e+28
3.727611940298507420e+01 2.468090575948627574e+00 7.873722184092991405e+00 5.229417422219461820e+00 1.312683540330951693e-01 6.106381482578994435e-02 5.414666046997992366e-01 4.968303609782010863e+28
3.828358208955223319e+01 2.460428077841344319e+00 7.885607461448164379e+00 5.255907534873261788e+00 1.395243963856032665e-01 6.490438588437372203e-02 5.755218136174280463e-01 4.975404069880163600e+28
3.929104477611939927e+01 2.452804663444367872e+00 7.897208068665214853e+00 5.282005099207678356e+00 1.481657134794215902e-01 6.892418022669342947e-02 6.111662357737724927e-01 4.981249478507909655e+28
4.029850746268656536e+01 2.445219954979754196e+00 7.908538116699577181e+00 5.306545164410042759e+00 1.567789609613790269e-01 7.293091706102859673e-02 6.466948740647560090e-01 4.986633294569322746e+28
4.130597014925372434e+01 2.437673808692060629e+00 7.919610696277511686e+00 5.329699113439342995e+00 1.653642901351135008e-01 7.692466677126871821e-02 6.821083526001850972e-01 4.991453646234231472e+28
4.231343283582089043e+01 2.430165763019073388e+00 7.930437974472513751e+00 5.351611531582389780e+00 1.739218510830232989e-01 8.090549917320337403e-02 7.174072904523965954e-01 4.995954015043734561e+28
4.332089552238805652e+01 2.422695603802253572e+00 7.941031279068827331e+00 5.372405517458410884e+00 1.824517926963707959e-01 8.487348352852583377e-02 7.525923017804302395e-01 4.999936251490125046e+28
4.432835820895522261e+01 2.415263090835691795e+00 7.951401174545364547e+00 5.392186740127096201e+00 1.909542626791455033e-01 8.882868854663016067e-02 7.876639958459648039e-01 5.003473200945551276e+28
4.533582089552238159e+01 2.407867872087678052e+00 7.961557529234350561e+00 5.411046581666028032e+00 1.994294075694797164e-01 9.277118239457336768e-02 8.226229771016537740e-01 5.006594173364994666e+28
4.634328358208954768e+01 2.400509793340092290e+00 7.971509574450320379e+00 5.429064601885762009e+00 2.078773727387001058e-01 9.670103269663427037e-02 8.574698451872143634e-01 5.009213399550118669e+28
4.735074626865671377e+01 2.393188442831747587e+00 7.981265958938114302e+00 5.446310493516250517e+00 2.162983024258210429e-01 1.006183065503591934e-01 8.922051950717078128e-01 5.011079629447305435e+28
4.835820895522387275e+01 2.385903577173707379e+00 7.990834796424240771e+00 5.462845649108954760e+00 2.246923397201140704e-01 1.045230705184535674e-01 9.268296169816409025e-01 5.012370799531778548e+28
4.936567164179103884e+01 2.378654973209586743e+00 8.000223709479723055e+00 5.478724428851406536e+00 2.330596266036198683e-01 1.084153906485577495e-01 9.613436965763222375e-01 5.013411525733583206e+28
5.037313432835820493e+01 2.371442401621717710e+00 8.009439867780550060e+00 5.493995195097459927e+00 2.414003039349005286e-01 1.122953324656889296e-01 9.957480148808428577e-01 5.014210627395110260e+28
5.138059701492537101e+01 2.364265513414558928e+00 8.018490023364170938e+00 5.508701163459069683e+00 2.497145114763063833e-01 1.161629609849251232e-01 1.030043148398548825e+00 5.014776642858665238e+28
5.238805970149253000e+01 2.357124023489090003e+00 8.027380543110753663e+00 5.522881108081961976e+00 2.580023879113748642e-01 1.200183407194988783e-01 1.064229669182808591e+00 5.015143330389220709e+28
5.339552238805969608e+01 2.350017801320412492e+00 8.036117436874192776e+00 5.536569950063465306e+00 2.662640708356392438e-01 1.238615356765216530e-01 1.098308144799101438e+00 5.015246159953821021e+28
5.440298507462686217e+01 2.342946472163384364e+00 8.044706383817072037e+00 5.549799251596521543e+00 2.744996967839932744e-01 1.276926093697133557e-01 1.132279138437892740e+00 5.015126242685595274e+28
5.541044776119402826e+01 2.335909870315119097e+00 8.053152756205129492e+00 5.562597633306065603e+00 2.827094012250161437e-01 1.315116248167623181e-01 1.166143208891223360e+00 5.014756953633898681e+28
5.641791044776118724e+01 2.328907642768142772e+00 8.061461641515659693e+00 5.574991128768155058e+00 2.908933185911959374e-01 1.353186445533850202e-01 1.199900910677381916e+00 5.014106599882223856e+28
5.742537313432835333e+01 2.321939679573283843e+00 8.069637862037717824e+00 5.587003487180635553e+00 2.990515823072176227e-01 1.391137306464848566e-01 1.233552794157585231e+00 5.013017346320511367e+28
5.843283582089551942e+01 2.315005585615204975e+00 8.077685992838725682e+00 5.598656432935918303e+00 3.071843247523105003e-01 1.428969446766371332e-01 1.267099405380669452e+00 5.011188287326940091e+28
5.944029850746267840e+01 2.308105210478270664e+00 8.085610378357962702e+00 5.609969889445811653e+00 3.152916773039997622e-01 1.466683477584410644e-01 1.300541286263556584e+00 5.009205576583733785e+28
6.044776119402984449e+01 2.301238298194923981e+00 8.093415148198269904e+00 5.620962172796692968e+00 3.233737703236798655e-01 1.504280005338093640e-01 1.333878974531749861e+00 5.007017867734760230e+28
6.145522388059701058e+01 2.294404584702335992e+00 8.101104230269280393e+00 5.631650160124876514e+00 3.314307331974681303e-01 1.541759631909722095e-01 1.367113003887846956e+00 5.004850124089084509e+28
6.246268656716417667e+01 2.287603912832636421e+00 8.108681364781032741e+00 5.642049436454966482e+00 3.394626943334120295e-01 1.579122954631782261e-01 1.400243904000023409e+00 5.002484970435226875e+28
6.347014925373133565e+01 2.280835945209107152e+00 8.116150114856047537e+00 5.652174423280698079e+00 3.474697811658098989e-01 1.616370566307044621e-01 1.433272200519852158e+00 4.999944287293547928e+28
6.447761194029850174e+01 2.274100467940781467e+00 8.123513878391696252e+00 5.662038491546256935e+00 3.554521201655777007e-01 1.653503055256789200e-01 1.466198415125067545e+00 4.997320636024559495e+28
6.548507462686566782e+01 2.267397331029559648e+00 8.130775897893872894e+00 5.671654061232436206e+00 3.634098368449827365e-01 1.690521005342822958e-01 1.499023065539089261e+00 4.994558323980171530e+28
6.649253731343283391e+01 2.260726204753809476e+00 8.137939269765888994e+00 5.681032689449084572e+00 3.713430557914446095e-01 1.727424996124718448e-01 1.531746665670449703e+00 4.991520923328541447e+28
6.750000000000000000e+01 2.254086924964425087e+00 8.145006952849103143e+00 5.690185148499903534e+00 3.792519006482276134e-01 1.764215602769999003e-01 1.564369725533149902e+00 4.988325185393843657e+28
6.850746268656715188e+01 2.247479260983534122e+00 8.151981776756946019e+00 5.699121495364381396e+00 3.871364941425556316e-01 1.800893396184920781e-01 1.596892751362631202e+00 4.985084795113531941e+28
6.951492537313431797e+01 2.240902944923446327e+00 8.158866449193570958e+00 5.707851133627815265e+00 3.949969580853968654e-01 1.837458943013476897e-01 1.629316245614889747e+00 4.981619101745116738e+28
7.052238805970148405e+01 2.234357807426089693e+00 8.165663562669177367e+00 5.716382868872418754e+00 4.028334133916355864e-01 1.873912805731225983e-01 1.661640707049676813e+00 4.977854569730076568e+28
7.152985074626865014e+01 2.227843642319322637e+00 8.172375601427926739e+00 5.724724958279279186e+00 4.106459800600137933e-01 1.910255542551991537e-01 1.693866630647767213e+00 4.973932022219376390e+28
7.253731343283581623e+01 2.221360226375743707e+00 8.179004946894277595e+00 5.732885155266012056e+00 4.184347772269033650e-01 1.946487707677995449e-01 1.725994507832757430e+00 4.969627174983294405e+28
7.354477611940298232e+01 2.214907259661455186e+00 8.185553883450555901e+00 5.740870749610363255e+00 4.261999231540695710e-01 1.982609851242937704e-01 1.758024826420595765e+00 4.965188257594841544e+28
7.455223880597014841e+01 2.208484708526304185e+00 8.192024603989004561e+00 5.748688603659458884e+00 4.339415352204116783e-01 2.018622519273575999e-01 1.789958070585510042e+00 4.960576149182607957e+28
7.555970149253730028e+01 2.202092180043564884e+00 8.198419214253517495e+00 5.756345185112156315e+00 4.416597299558648881e-01 2.054526253847430983e-01 1.821794720999851958e+00 4.955896762485614359e+28
7.656716417910446637e+01 2.195729600048344832e+00 8.204739737686686851e+00 5.763846596670186173e+00 4.493546230238085193e-01 2.090321593010950330e-01 1.853535254761530471e+00 4.951194807369735870e+28
7.757462686567163246e+01 2.189396656591723112e+00 8.210988119650629358e+00 5.771198602998183880e+00 4.570263292499128216e-01 2.126009070913704169e-01 1.885180145513003946e+00 4.946352375562001404e+28
7.858208955223879855e+01 2.183093192645960023e+00 8.217166231122821074e+00 5.778406655228869759e+00 4.646749626375439868e-01 2.161589217880040825e-01 1.916729863504820885e+00 4.941522685995581164e+28
7.958955223880596463e+01 2.176819043586838198e+00 8.223275873075094111e+00 5.785475913251162616e+00 4.723006363431767052e-01 2.197062560294713862e-01 1.948184875494203494e+00 4.936607202418222878e+28
8.059701492537313072e+01 2.170573999959611644e+00 8.229318779210109014e+00 5.792411266111985313e+00 4.799034627200453040e-01 2.232429620805938542e-01 1.979545644925099213e+00 4.931607571252230583e+28
8.160447761194029681e+01 2.164357797462343580e+00 8.235296619879889590e+00 5.799217350602875243e+00 4.874835532919968295e-01 2.267690918203761619e-01 2.010812631820332097e+00 4.926479979881216823e+28
8.261194029850744869e+01 2.158170272607875528e+00 8.241211004681499475e+00 5.805898568336028021e+00 4.950410187946439611e-01 2.302846967611495432e-01 2.041986292951349924e+00 4.921357839625474802e+28
8.361940298507461478e+01 2.152011251577079953e+00 8.247063485881609424e+00 5.812459101367395853e+00 5.025759691766440440e-01 2.337898280491670644e-01 2.073067081843503079e+00 4.916060625363781117e+28
8.462686567164178086e+01 2.145880592923473440e+00 8.252855560528177037e+00 5.818902926536004827e+00 5.100885135922517133e-01 2.372845364611392005e-01 2.104055448745322909e+00 4.910674060349382235e+28
8.563432835820894695e+01 2.139777991695930304e+00 8.258588673405759195e+00 5.825233828673079373e+00 5.175787604205370762e-01 2.407688724131734626e-01 2.134951840707795423e+00 4.905247166839590362e+28
8.664179104477611304e+01 2.133703303926751005e+00 8.264264219598082661e+00 5.831455412732473143e+00 5.250468172439660686e-01 2.442428859508108674e-01 2.165756701496007963e+00 4.899713625864661064e+28
8.764925373134327913e+01 2.127656403054342338e+00 8.269883546473010938e+00 5.837571115047753167e+00 5.324927909143127858e-01 2.477066267796866894e-01 2.196470471861028173e+00 4.894058093898735427e+28
8.865671641791044522e+01 2.121637013271256311e+00 8.275447955822569313e+00 5.843584213632261992e+00 5.399167875023469509e-01 2.511601442421263486e-01 2.227093589332374446e+00 4.888283713570201750e+28
8.966417910447759709e+01 2.115645001695220184e+00 8.280958705943717746e+00 5.849497837773559361e+00 5.473189123382937726e-01 2.546034873359666051e-01 2.257626488384904206e+00 4.882279611252094830e+28
9.067164179104476318e+01 2.109680124605703977e+00 8.286417013935949427e+00 5.855314976865990673e+00 5.546992699911420521e-01 2.580367047049297868e-01 2.288069600353462629e+00 4.876056720078839988e+28
9.167910447761192927e+01 2.103742311393288489e+00 8.291824056921251795e+00 5.861038488647778877e+00 5.620579643151497606e-01 2.614598446602576232e-01 2.318423353624716743e+00 4.869779224326305696e+28
9.268656716417909536e+01 2.097831328743777313e+00 8.297180974207137183e+00 5.866671106799546287e+00 5.693950984396144444e-01 2.648729551759523293e-01 2.348688173594953188e+00 4.863435781811747302e+28
9.369402985074626145e+01 2.091946954383690382e+00 8.302488868655343524e+00 5.872215447995306370e+00 5.767107747501013515e-01 2.682760838800447023e-01 2.378864482592652596e+00 4.857019079775491294e+28
9.470149253731342753e+01 2.086089073528734072e+00 8.307748808166369514e+00 5.877674018495406827e+00 5.840050949193847929e-01 2.716692780689872744e-01 2.408952700006115499e+00 4.850666951205789753e+28
9.570895522388059362e+01 2.080257455651607135e+00 8.312961827665054315e+00 5.883049220271137969e+00 5.912781599224758988e-01 2.750525847146447211e-01 2.438953242345450523e+00 4.844252958496641199e+28
9.671641791044774550e+01 2.074451974176870106e+00 8.318128929793278559e+00 5.888343356702329778e+00 5.985300700396816165e-01 2.784260504657173341e-01 2.468866523255193179e+00 4.837805958612648987e+28
9.772388059701491159e+01 2.068672452138565987e+00 8.323251086718588709e+00 5.893558637876070705e+00 6.057609248387543222e-01 2.817897216394370519e-01 2.498692953440674547e+00 4.831314678021212637e+28
